title='particle position' 
variables=x, y, Ux, Uy, rho, e, p, h=supportlength/2, m, V, ID 
      0.993971664      0.989723431     0.0734342365    -0.0357609426      0.999592601       532.245637         266.0144     0.0333333333  0.000277790641  0.00027786453  3600
      0.978092191      0.985632639      0.156809698     -0.123272533       1.00015551       532.374635       266.228712     0.0333333333  0.000277791262  0.000277847285  3599
      0.961565097      0.981566589     0.0918373244     -0.229368195       1.00059959       532.508507       266.413897     0.0333333333  0.000277790008  0.000277842839  3598
      0.945680547      0.977759801      0.126497058     -0.312504238       0.99941111       532.227344        265.95696     0.0333333333  0.000277789856  0.00027821772  3597
      0.929115814      0.974093604      0.179457336     -0.389898131      0.997749748       531.809924       265.306609     0.0333333333  0.000277790578  0.000278728683  3596
      0.912591668      0.970756767      0.113647602     -0.449813373      0.997764689       531.915676        265.36334     0.0333333333  0.000277789856  0.000278719965  3595
      0.896154214      0.967701678      0.115909684     -0.493664163      0.998021847       532.165589       265.556442     0.0333333333  0.000277789856  0.000278530396  3594
      0.879256264      0.964999553        0.2150875     -0.544335546      0.998727568       532.492919       265.907679     0.0333333333  0.000277790578  0.000278217239  3593
      0.862495661      0.962634833      0.208964175     -0.575330992       1.00107683       533.189623       266.881888     0.0333333333  0.000277789856  0.000277555228  3592
      0.845542058      0.960632626      0.169864076     -0.587603965       1.00327066       533.841857       267.793937     0.0333333333  0.000277789856  0.000276985324  3591
      0.828910667      0.958802737      0.192246891     -0.640116284       1.00254374       533.705281       267.531444     0.0333333333  0.000277790578  0.000277210157  3590
      0.812207585      0.956935002       0.17015671     -0.704869714      0.999662457       532.973541        266.39682     0.0333333333  0.000277789856  0.000278006755  3589
      0.794873814      0.956245529     0.0449638909      -0.55275959      0.998000859         532.6427       265.788936     0.0333333333  0.000277789856  0.000278414784  3588
      0.776766949      0.956306192     0.0933095526     -0.623843439      0.998858056       533.009637       266.200485     0.0333333333  0.000277790578  0.000278073788  3587
      0.761558975      0.951958616      0.211657192     -0.820038447        1.0002483       533.292696       266.712558     0.0333333333  0.000277789856  0.000277602929  3586
      0.738908926      0.955768719     -0.225166056     -0.536210199       1.00299381       533.987893       267.793277     0.0333333333  0.000277789856  0.000276964555  3585
      0.722545466      0.955256913    -0.0389315685     -0.795296326         1.001007       533.481137       267.009176     0.0333333333  0.000277790578  0.000277567169  3584
      0.705579783      0.957103864      -0.21849096     -0.585553569      0.997502315       532.596581       265.633162     0.0333333333  0.000277789856  0.000278574896  3583
      0.687918922      0.957475788     -0.134703504     -0.608435449      0.998010176       532.712652       265.826324     0.0333333333  0.000277789856  0.000278415014  3582
      0.671397355      0.958759573     -0.124242943     -0.633433029       1.00033034       533.280147       266.728155     0.0333333333  0.000277790578  0.000277804027  3581
      0.653974979      0.960542744     -0.232834321     -0.619319977       1.00216776       533.708274       267.432612     0.0333333333  0.000277789856  0.000277311591  3580
      0.637697477      0.962755906     -0.200172948     -0.572141216       1.00152309       533.502898       267.157737     0.0333333333  0.000277789856  0.000277452861  3579
       0.62072084      0.965060359     -0.245721691      -0.53644487      0.999539824        532.94869        266.35172     0.0333333333  0.000277790578  0.000277980975  3578
      0.603934666      0.967804507     -0.111144133     -0.492942169      0.998529068       532.548674       265.882666     0.0333333333  0.000277789856  0.000278360744  3577
      0.587625872      0.970772613     -0.108940988     -0.455991705      0.997642291       532.090507       265.417996     0.0333333333  0.000277789856  0.000278739111  3576
       0.57081576      0.974146105     -0.166206197     -0.383702891      0.996851128       531.715446       265.020571     0.0333333333  0.000277790578  0.000278993558  3575
      0.554555553      0.977774689     -0.126421431     -0.309320883      0.997872617       531.925968       265.397179     0.0333333333  0.000277789856  0.000278659899  3574
      0.538365932      0.981597755     -0.110936874     -0.233232981      0.998963409       532.179069       265.813709     0.0333333333  0.000277789856  0.000278307267  3573
      0.521865642      0.985680705     -0.147384634     -0.124825383      0.999776105       532.380371       266.130587     0.0333333333  0.000277790578  0.0002780078  3572
      0.506220817       0.98971425    -0.0255976547    -0.0470043341       1.00023238       532.490494       266.307118     0.0333333333  0.000277789856  0.000277769925  3571
       0.48946315      0.993995386    -0.0827711984     0.0689722811       1.00026191       532.471738         266.3056     0.0333333333  0.000277789856  0.000277616505  3570
      0.474047548      0.998002941     0.0248396153      0.151688759      0.999498579       532.225196       265.979164     0.0333333333  0.000277790578  0.000277706101  3569
      0.457405202    0.00207443719     0.0456899628       0.24578846      0.998978484       532.070517       265.763499     0.0333333333  0.000277789856  0.000278453949  3568
      0.441078394    0.00592940159    -0.0998732627      0.350036551      0.998775735       532.083411          265.716     0.0333333333  0.000277789856  0.000278594849  3567
      0.425938165    0.00939741596      0.180541706      0.389585704      0.997360826       531.773669       265.185113     0.0333333333  0.000277790578  0.000279063382  3566
      0.407253426     0.0129452777    -0.0818962819      0.481759805      0.998728195       532.225568        265.77434     0.0333333333  0.000277789856  0.000278768164  3565
      0.393944516     0.0155927233      0.126822521      0.501383953      0.999538227       532.563649       266.158863     0.0333333333  0.000277789856  0.000278520964  3564
      0.374309261     0.0185094775     0.0648162479      0.568064405      0.999133733       532.557877        266.04827     0.0333333333  0.000277790578  0.000278526242  3563
       0.35978806     0.0205557662     0.0168158161      0.589129375      0.999731559       532.752743       266.304865     0.0333333333  0.000277789856  0.000278319478  3562
      0.342933971     0.0224971777      0.178767659      0.609240475      0.998582492       532.488542       265.866868     0.0333333333  0.000277789856  0.00027868738  3561
      0.322051402     0.0242613043     -0.443355583      0.666135813      0.999701845       533.010874       266.425977     0.0333333333  0.000277790578  0.000278375262  3560
      0.314227907     0.0265254832      0.295616393      0.696033453      0.997980586       532.702289       265.813271     0.0333333333  0.000277789856  0.000278777656  3559
       0.28470371     0.0271550983     -0.415924008      0.636061771      0.998258137       533.061303       266.066392     0.0333333333  0.000277789856  0.000278743177  3558
      0.281901844     0.0275865596      0.256298295      0.562777187      0.998370946       533.187015       266.159212     0.0333333333  0.000277790578  0.000278701076  3557
      0.250530334     0.0282847098     -0.369213828      0.580784894      0.997954521       533.123726       266.016616     0.0333333333  0.000277789856  0.000278755576  3556
      0.252177541     0.0294074393    -0.0268226882      0.592888775      0.998185837        533.32537       266.178915     0.0333333333  0.000277789856  0.000278659729  3555
      0.217662449     0.0283209054    -0.0604346449      0.463975408      0.997301009       532.749464       265.655789     0.0333333333  0.000277790578  0.000278944247  3554
      0.219992079     0.0285481125      0.123930746      0.477412407      0.997167384       532.837466       265.664071     0.0333333333  0.000277789856  0.000278961805  3553
      0.185520604     0.0262114178     -0.323728777      0.530257041      0.998524087       533.057278       266.135266     0.0333333333  0.000277789856  0.000278692516  3552
      0.185116902     0.0257561602       0.34671751       0.57754577      0.998522721       533.065795       266.139154     0.0333333333  0.000277790578  0.000278708447  3551
      0.156255732     0.0235961561     -0.261254137      0.616296409      0.998766548       532.912087       266.127383     0.0333333333  0.000277789856  0.000278498703  3550
      0.145540295     0.0214209324      0.222826421      0.669239835       0.99943887       533.001781       266.351349     0.0333333333  0.000277789994  0.00027832701  3549
      0.125727251     0.0189097518    -0.0471647191      0.651944517      0.997394635       532.277552       265.445387     0.0333333333  0.0002777912  0.000278994225  3548
        0.1083268     0.0155943113     0.0254865588      0.548878394      0.998150558       532.328338       265.671914     0.0333333333  0.000277790557  0.000278934656  3547
     0.0932619435     0.0129367851      0.102331527      0.534795778       0.99838913       532.268242       265.705414     0.0333333333  0.000277789372  0.000278921081  3546
     0.0743143234    0.00914026509    -0.0805904055      0.385723576      0.999035848       532.358484       265.922605     0.0333333333  0.000277789522  0.000278657848  3545
     0.0597670998    0.00588910021     0.0621892366      0.343683346      0.999359699        532.40532        266.03221     0.0333333333  0.000277789921  0.000278452401  3544
     0.0420386577    0.00191216984    -0.0714295374      0.227459349      0.998962726       532.259778        265.85384     0.0333333333  0.000277789872  0.000278410717  3543
      0.026590606      0.998034708     0.0780779871      0.164513087      0.999126461       532.238427       265.886748     0.0333333333  0.000277789438  0.000277821467  3542
      0.010198658      0.993912835     0.0497380006     0.0671646177      0.999198085       532.183853       265.878544     0.0333333333  0.000277789372  0.000278012145  3541
      0.998195668      0.973594594      0.172725248    -0.0144164274      0.999594215       532.268844       266.026429     0.0333333333  0.000277791262  0.000277677122  3540
       0.98217721       0.96948873      0.243857897     -0.107395196       1.00008873       532.382788       266.215013     0.0333333333  0.000277791884  0.000277646169  3539
       0.96568631       0.96548574      0.218475532     -0.206876221       1.00056993       532.521717       266.412607     0.0333333333  0.00027779063  0.000277663476  3538
      0.949587972      0.961654368      0.212263454     -0.295873554       0.99972575       532.336353        266.09518     0.0333333333  0.000277790478  0.000277948284  3537
      0.933019989      0.958018028      0.275287252     -0.369266804      0.998008465       531.909973       265.425328     0.0333333333  0.000277791199  0.000278443303  3536
       0.91628661      0.954737788       0.24949046     -0.424912482      0.997813316       531.930662       265.383749     0.0333333333  0.000277790478  0.000278498511  3535
      0.899498541      0.951707213      0.181316065      -0.45714244      0.998457956       532.273741       265.726476     0.0333333333  0.000277790478  0.00027822847  3534
      0.882584807      0.949050733      0.274025159     -0.513605188      0.998856448       532.548677        265.96984     0.0333333333  0.000277791199  0.000278026385  3533
      0.865203781      0.946727586      0.280356997     -0.567482901        1.0006106       533.104766       266.715139     0.0333333333  0.000277790478  0.000277560742  3532
      0.848167554      0.944629506      0.250792623     -0.574788315       1.00318436       533.855134       267.777559     0.0333333333  0.000277790478  0.000276920217  3531
       0.83052107      0.942830359       0.16771939     -0.613961273       1.00322262       533.931808       267.826233     0.0333333333  0.000277791199  0.000276946112  3530
      0.813031044       0.94158402       0.10898955     -0.553869822       1.00070644       533.299119       266.837933     0.0333333333  0.000277790478  0.000277648347  3529
      0.794814971      0.940286644      0.101403694     -0.659903705       0.99809891       532.655965       265.821669     0.0333333333  0.000277790478  0.000278343916  3528
      0.777613162      0.938863356   -0.00133455356     -0.495491684       0.99750756       532.583237       265.627902     0.0333333333  0.000277791199  0.000278447344  3527
      0.758998282      0.938304033   -0.00114700439     -0.610684088      0.996931408        532.48004       265.423038     0.0333333333  0.000277790478  0.000278543448  3526
      0.740942668       0.93830127     0.0230005277     -0.641023744      0.997468683       532.609371       265.630584     0.0333333333  0.000277790478  0.00027840886  3525
       0.72301156      0.939077517  -0.000377790728     -0.601357217      0.997217075       532.522523       265.520276     0.0333333333  0.000277791199  0.000278536037  3524
      0.704620938      0.939620436     -0.106718594     -0.648478777      0.997099256       532.492847       265.474111     0.0333333333  0.000277790478  0.000278591732  3523
      0.687008015      0.941543134      -0.15661608     -0.590447438      0.998813607       532.946747       266.157231     0.0333333333  0.000277790478  0.000278125236  3522
       0.66954617      0.942981437     -0.175685458     -0.569078766       1.00154557       533.640724       267.232751     0.0333333333  0.000277791199  0.000277398789  3521
      0.651947296      0.944716404      -0.22712575     -0.567644356       1.00219288       533.756433       267.463448     0.0333333333  0.000277790478  0.000277213729  3520
      0.634813952       0.94677821     -0.293765999     -0.561363281       1.00119215       533.463466       267.049716     0.0333333333  0.000277790478  0.00027741168  3519
      0.617482358      0.949076037      -0.28878103     -0.519893726      0.999342661       532.922561       266.286125     0.0333333333  0.000277791199  0.00027787123  3518
       0.60054748      0.951807598     -0.190470554     -0.467282866      0.998678315        532.58527        265.94068     0.0333333333  0.000277790478  0.000278128316  3517
      0.583850333      0.954744727     -0.233777584     -0.424787967      0.997673479       532.098516       265.430289     0.0333333333  0.000277790478  0.000278526669  3516
      0.566986916      0.958068063     -0.253020034     -0.364076095      0.997159118       531.820205       265.154683     0.0333333333  0.000277791199  0.000278706326  3515
      0.550576701      0.961695371     -0.239093723     -0.285471722      0.998112524       532.015535       265.505684     0.0333333333  0.000277790478  0.000278420405  3514
      0.534275996      0.965484714     -0.219446362     -0.211952886      0.998936252       532.198504       265.816189     0.0333333333  0.000277790478  0.000278171179  3513
      0.517740132       0.96957093     -0.239968539     -0.106052731      0.999729904        532.39415       266.125176     0.0333333333  0.000277791199  0.000277915793  3512
      0.502037021      0.973585147     -0.130783386    -0.0216597048       1.00018824        532.50377       266.302003     0.0333333333  0.000277790478  0.000277731152  3511
      0.485295386      0.977818211     -0.177690563     0.0880520281        1.0002001       532.476525       266.291536     0.0333333333  0.000277790478  0.000277648256  3510
      0.469865723      0.981821463    -0.0719826035      0.176810878      0.999559259       532.260159       266.012785     0.0333333333  0.000277791199  0.000277738692  3509
      0.453321955      0.985814712    -0.0622966185      0.269541091       0.99910501       532.125806       265.824779     0.0333333333  0.000277790478  0.000277748343  3508
      0.437030236      0.989662949     -0.203032145      0.377681127      0.998787357       532.105433       265.730089     0.0333333333  0.000277790478  0.000277687049  3507
      0.422054799      0.993048968     0.0890245511      0.416519706      0.997425803       531.808153       265.219587     0.0333333333  0.000277791199  0.000277948856  3506
      0.403555729      0.996578779     -0.193861707      0.496501049      0.998731498       532.248766       265.786804     0.0333333333  0.000277790478  0.000277462855  3505
      0.390438736      0.999275917     0.0534246107      0.533574473      0.999355244       532.536864       266.096754     0.0333333333  0.000277790478  0.000277198182  3504
      0.371134649    0.00195782225    -0.0403894747      0.531854124      0.998925919       532.522156       265.975092     0.0333333333  0.000277791199  0.000278894359  3503
      0.356797295    0.00427408559    -0.0565149206      0.593504736      0.998985696       532.569049       266.014431     0.0333333333  0.000277790478  0.000278916806  3502
      0.340107691    0.00587066089      0.153090982        0.6323291      0.998439182       532.476696       265.822798     0.0333333333  0.000277790478  0.00027916215  3501
      0.321373282      0.007798804      -0.19592518      0.679722968      0.999369664       532.910154       266.287121     0.0333333333  0.000277791199  0.000278937748  3500
      0.309675714    0.00871215712      0.117409018      0.651592312      0.998704832       532.923726        266.11675     0.0333333333  0.000277790478  0.000279137415  3499
      0.285180283     0.0111329213     -0.285405466       1.00252032      0.999319165       533.358466       266.497669     0.0333333333  0.000277790478  0.000278961267  3498
      0.283101876     0.0217346936      0.347951678      0.951320782      0.998391331        533.48279       266.312296     0.0333333333  0.000277791199  0.000278903269  3497
      0.249940262     0.0150173231     -0.154377021      0.874942025      0.998101384       533.119276       266.053544     0.0333333333  0.000277790478  0.000279150054  3496
      0.250046911     0.0126475697       0.57709646      0.705011527      0.998219448       533.144755       266.097732     0.0333333333  0.000277790478  0.000279179981  3495
      0.217549338     0.0172184321     -0.228991436       1.04744091      0.997493164       532.824788       265.744542     0.0333333333  0.000277791199  0.000279305549  3494
       0.21413445     0.0126351544      0.405564038      0.601865737      0.998104654       532.923897       265.956911     0.0333333333  0.000277790478  0.000279299401  3493
      0.188677195     0.0120936164     -0.309900661      0.759437034      0.999332959       533.223767       266.434042     0.0333333333  0.000277790478  0.000278942803  3492
      0.176479296    0.00867405006     0.0293315641      0.603251465      0.999425377       533.182229       266.437925     0.0333333333  0.000277791199  0.000278911601  3491
      0.158820877    0.00758880586      -0.22159821      0.740847542      0.999141174       533.006056       266.274148     0.0333333333  0.000277790478  0.00027888623  3490
      0.142703204    0.00426983161      -0.23019567      0.570893282      0.998459477       532.705293       265.942324     0.0333333333  0.000277790616  0.000279043969  3489
      0.128334359    0.00237660878    0.00667300947      0.617832153      0.997684533       532.370993       265.569153     0.0333333333  0.000277791822  0.000279227901  3488
