title='particle position' 
variables=x, y, Ux, Uy, rho, e, p, h=supportlength/2, m, V, ID 
      0.992871168      0.990639975     0.0719437059    -0.0524368938      0.998173942       531.882805       265.455778     0.0333333333  0.000277790641  0.000278288207  3600
      0.976300043      0.988491704     0.0878493084     -0.152305236       0.99798132       531.811442       265.368942     0.0333333333  0.000277791262  0.000278521577  3599
      0.959718648          0.98638     0.0997859004     -0.250718528      0.998066778       531.843433       265.407631     0.0333333333  0.000277790008  0.000278658984  3598
      0.943109115       0.98432813      0.103251265      -0.34697937      0.998270992       531.936895       265.508586     0.0333333333  0.000277789856  0.000278671224  3597
      0.926477649      0.982360496      0.106186059       -0.4387247      0.998511441       532.062012       265.635003     0.0333333333  0.000277790578  0.000278605272  3596
      0.909817224      0.980498618       0.10668029     -0.525058045      0.998745184       532.204576       265.768379     0.0333333333  0.000277789856  0.000278530986  3595
      0.893124497      0.978762961      0.105453733     -0.604831153       0.99894319       532.350374        265.89389     0.0333333333  0.000277789856  0.000278496836  3594
      0.876397752      0.977172126      0.102110995     -0.677135886      0.999108715       532.497461       266.011427     0.0333333333  0.000277790578  0.000278489656  3593
      0.859635553      0.975743113     0.0959515659     -0.741323339      0.999249459       532.639879       266.120056     0.0333333333  0.000277789856  0.000278489635  3592
      0.842839318      0.974490952     0.0872240259     -0.796891632      0.999369475       532.776813       266.220442     0.0333333333  0.000277789856  0.000278490663  3591
      0.826010511      0.973428293     0.0755255918     -0.843519966      0.999471276       532.905115       266.311678     0.0333333333  0.000277790578  0.000278491641  3590
      0.809153122      0.972565783     0.0611265791     -0.880984555      0.999554201       533.016927       266.389654     0.0333333333  0.000277789856  0.000278492171  3589
       0.79227224      0.971911842     0.0447334497     -0.909166022      0.999614238       533.111281       266.452814     0.0333333333  0.000277789856  0.000278493225  3588
      0.775373109      0.971472684     0.0266407329      -0.92796764      0.999650647       533.183978       266.498854     0.0333333333  0.000277790578  0.000278494938  3587
      0.758463051      0.971252431    0.00750849798     -0.937340195      0.999662623       533.228882       266.524491     0.0333333333  0.000277789856  0.000278497304  3586
      0.741549211       0.97125314    -0.0117644534     -0.937290193      0.999646831       533.247067        266.52937     0.0333333333  0.000277789856  0.000278501329  3585
      0.724638467      0.971474735    -0.0306752228     -0.927812124      0.999605556       533.237141       266.513404     0.0333333333  0.000277790578  0.00027850639  3584
      0.707738483      0.971915045    -0.0484703156     -0.908914771      0.999542224       533.198047       266.476981     0.0333333333  0.000277789856  0.000278511437  3583
      0.690856139      0.972569858    -0.0643184808     -0.880668502      0.999456945       533.133689       266.422084     0.0333333333  0.000277789856  0.000278516671  3582
      0.673996821      0.973432904    -0.0779685971     -0.843160988      0.999354903       533.045445       266.350789     0.0333333333  0.000277790578  0.000278520736  3581
      0.657165915      0.974495702    -0.0888544066     -0.796513464      0.999243288       532.937287       266.267003     0.0333333333  0.000277789856  0.000278521609  3580
       0.64036746       0.97574756    -0.0964819707     -0.740973861      0.999125299       532.815908       266.174927     0.0333333333  0.000277789856  0.00027851878  3579
      0.623603268      0.977175874     -0.101095558     -0.676860997      0.999006751       532.684819       266.077865     0.0333333333  0.000277790578  0.000278510888  3578
      0.606874924      0.978765699     -0.102547499     -0.604640071      0.998893161       532.549475       265.980014     0.0333333333  0.000277789856  0.000278501722  3577
      0.590182588      0.980500077     -0.100792329     -0.524988606      0.998784721       532.415705       265.884335     0.0333333333  0.000277789856  0.000278510117  3576
      0.573524111       0.98236077    -0.0967738878     -0.438634435      0.998681895       532.287696       265.793042     0.0333333333  0.000277790578  0.000278548505  3575
      0.556897642      0.984327542    -0.0905769309     -0.346530782       0.99858102       532.168467       265.706665     0.0333333333  0.000277789856  0.000278577045  3574
      0.540300148      0.986378966     -0.081628604     -0.249837129      0.998488962       532.064326       265.630178     0.0333333333  0.000277789856  0.000278546066  3573
      0.523723889      0.988493025    -0.0729978055     -0.149491274      0.998423549       531.987997       265.574672     0.0333333333  0.000277790578  0.000278447898  3572
      0.507168852      0.990644886    -0.0624710866     -0.047199978      0.998376209       531.933097       265.534675     0.0333333333  0.000277789856  0.000278319983  3571
      0.490630742      0.992808707    -0.0441080096     0.0548059916      0.998433528       531.931632       265.549188     0.0333333333  0.000277789856  0.000278157398  3570
      0.474085815      0.994958317    -0.0350214901      0.156159847      0.998680408       532.010587       265.654275     0.0333333333  0.000277790578  0.000277936277  3569
      0.457575679      0.997064248    -0.0155263777      0.253833757      0.998946082       532.111831       265.775514     0.0333333333  0.000277789856  0.000277712292  3568
      0.441068147      0.999103297      0.026279145      0.345886243      0.999386905        532.26953       265.971599     0.0333333333  0.000277789856  0.000277459121  3567
      0.424486283    0.00105851175    0.00855468777      0.437982869      0.999961763         532.4763        266.22797     0.0333333333  0.000277790578  0.000278414857  3566
      0.408074729    0.00289237468      0.040276156       0.52186611      0.999831472       532.491489       266.200875     0.0333333333  0.000277789856  0.000278577023  3565
      0.391472216    0.00460231627      0.062498917      0.600177604      0.999432318       532.427582       266.062666     0.0333333333  0.000277789856  0.000278820722  3564
      0.374793436    0.00616284838    -0.0399276625      0.676494987      0.998923972       532.379065       265.903105     0.0333333333  0.000277790578  0.000279062698  3563
      0.358543709    0.00752384499     0.0457921947      0.731953537      0.997794952       532.204927       265.515695     0.0333333333  0.000277789856  0.0002794348  3562
       0.34128779    0.00871022538    -0.0528532694      0.784337682      0.997673077       532.332284       265.546794     0.0333333333  0.000277789856  0.000279500805  3561
       0.32511927    0.00963406465    -0.0180548968      0.822687018      0.998404779       532.688648       265.919446     0.0333333333  0.000277790578  0.000279323174  3560
      0.308223429     0.0103865516      0.105339362       0.86534445      0.999338801       533.033186       266.340373     0.0333333333  0.000277789856  0.000279133458  3559
      0.290472238     0.0110641602     -0.131743469       0.92896268       1.00111043       533.535977       267.064215     0.0333333333  0.000277789856  0.00027875141  3558
       0.27619318     0.0117106933      0.273305757      0.954842235       1.00108884       533.568307        267.07464     0.0333333333  0.000277790578  0.000278832378  3557
      0.255626777      0.012758319     -0.238682936      0.997963896      0.998113156       532.841258       265.917935     0.0333333333  0.000277789856  0.000279659057  3556
      0.247312412     0.0134968727       0.27727467       1.01530293      0.996486723       532.685708       265.407118     0.0333333333  0.000277789856  0.000280071413  3555
      0.222520522     0.0135721643     0.0109312229       1.00193174      0.994077582       531.721523       264.286223     0.0333333333  0.000277790578  0.000280787424  3554
      0.215164611     0.0131109948      0.244924951       1.01737607      0.994672112       531.943127       264.554497     0.0333333333  0.000277789856  0.000280657553  3553
      0.191924994     0.0114292166     -0.161376071       0.92844275      0.998735755       532.989551       266.157861     0.0333333333  0.000277789856  0.000279481796  3552
      0.178486958    0.00998461881      0.273294864      0.911059674         1.000733       533.548946       266.970018     0.0333333333  0.000277790578  0.0002788424  3551
      0.159107813    0.00846832797   -0.00126235999      0.817475513        1.0006164       533.410233       266.869513     0.0333333333  0.000277789856  0.000278733912  3550
        0.1425464    0.00724624866     0.0947144946      0.729195641      0.998732728       532.785314       266.055065     0.0333333333  0.000277789994  0.000279135688  3549
      0.125657618    0.00590702723     0.0240603837      0.654476051       0.99679588       532.135193       265.215084     0.0333333333  0.0002777912  0.000279567677  3548
      0.108445817    0.00441682382     0.0426722146      0.593313872      0.997368476        532.12406       265.361881     0.0333333333  0.000277790557  0.000279343012  3547
     0.0922731547    0.00279643172     0.0666857939      0.520506392      0.998504941       532.252197       265.728224     0.0333333333  0.000277789372  0.000278984466  3546
     0.0754041129   0.000966603234    -0.0635171974      0.429122934      0.998992656        532.29182       265.877809     0.0333333333  0.000277789522  0.000278738154  3545
     0.0589557505      0.999047972     0.0019042567      0.343330589       0.99982537       532.493859       266.200435     0.0333333333  0.000277789921  0.000277367663  3544
     0.0425003607      0.997027998    0.00327307608      0.244563097       0.99990707       532.476685       266.213601     0.0333333333  0.000277789872  0.000277476362  3543
     0.0259193877      0.994930159    0.00578126828      0.145268324      0.999156477       532.229305       265.890179     0.0333333333  0.000277789438  0.000277851178  3542
    0.00942729194      0.992797749     0.0568594416      0.048845176      0.998577777        532.03047       265.636902     0.0333333333  0.000277789372  0.000278181329  3541
      0.995029303      0.974117268      0.177241952     -0.038004672      0.998097823       531.885238       265.436749     0.0333333333  0.000277791262  0.000278124124  3540
      0.978433884      0.971988976      0.192402138     -0.136793771      0.997926283       531.818587       265.357873     0.0333333333  0.000277791884  0.000278354004  3539
      0.961803691      0.969897263      0.201163973     -0.234657983      0.998040725       531.857755        265.40785     0.0333333333  0.00027779063  0.00027847468  3538
      0.945124592      0.967865252      0.201435169     -0.330429842      0.998281396       531.959036       265.522405     0.0333333333  0.000277790478  0.000278440306  3537
      0.928402316      0.965917364      0.200201226     -0.421528188      0.998565645        532.09824       265.667511     0.0333333333  0.000277791199  0.000278323091  3536
      0.911630389      0.964074478      0.195595282     -0.507156091      0.998846461       532.253786       265.819905     0.0333333333  0.000277790478  0.000278207473  3535
      0.894806815      0.962356993      0.188526888     -0.586075201      0.999096491       532.413946       265.966452     0.0333333333  0.000277790478  0.000278125621  3534
      0.877930909      0.960783367       0.17843226     -0.657414202      0.999318846       532.576686        266.10696     0.0333333333  0.000277791199  0.000278066895  3533
      0.861002461      0.959370476      0.164568992     -0.720498239      0.999519037       532.735434       266.239604     0.0333333333  0.000277790478  0.000278015739  3532
      0.844024541      0.958133146      0.147195156     -0.774897108      0.999697628       532.888452       266.363661     0.0333333333  0.000277790478  0.000277970481  3531
      0.827000223      0.957083724      0.125944341     -0.820337586      0.999853369       533.031554       266.476698     0.0333333333  0.000277791199  0.000277931288  3530
      0.809935524      0.956232513      0.101166317      -0.85669749      0.999982938       533.156166       266.573535     0.0333333333  0.000277790478  0.000277898597  3529
      0.792837935      0.955587532     0.0737415245     -0.883956403        1.0000797       533.260617        266.65156     0.0333333333  0.000277790478  0.000277874184  3528
      0.775715218      0.955154547     0.0442003215     -0.902111118       1.00014121       533.338217       266.706764     0.0333333333  0.000277791199  0.000277858726  3527
      0.758577398      0.954937476     0.0133488731     -0.911149927       1.00016604       533.388662       266.738612     0.0333333333  0.000277790478  0.000277852392  3526
      0.741434473      0.954938182    -0.0177355627     -0.911096391       1.00014997       533.406795       266.743395     0.0333333333  0.000277790478  0.000277856445  3525
      0.724296032      0.955156633    -0.0483395433     -0.901944237       1.00009537       533.393227       266.722048     0.0333333333  0.000277791199  0.000277870256  3524
      0.707172539      0.955590795    -0.0775662182     -0.883685419       1.00000661       533.347159       266.675343     0.0333333333  0.000277790478  0.000277892495  3523
      0.690073625      0.956236682     -0.104408185     -0.856353492      0.999884323       533.270649       266.604481     0.0333333333  0.000277790478  0.000277923207  3522
      0.673007148      0.957088467     -0.128390745     -0.819946412       0.99973542       533.171551       266.515242     0.0333333333  0.000277791199  0.000277960509  3521
       0.65598088         0.958138     -0.148786219     -0.774490954      0.999569935        533.04861       266.409682     0.0333333333  0.000277790478  0.000278001496  3520
      0.639000863         0.959375     -0.165018341     -0.720135479      0.999393845       532.911284       266.294129     0.0333333333  0.000277790478  0.000278044763  3519
      0.622070554      0.960787147     -0.177278996     -0.657166018      0.999217052        532.76422       266.173547     0.0333333333  0.000277791199  0.000278087594  3518
      0.605193158      0.962359686     -0.185409749     -0.585983432      0.999049456        532.61407       266.053898     0.0333333333  0.000277790478  0.000278128824  3517
      0.588370095      0.964075689     -0.189419724     -0.507332989       0.99889378       532.467358       265.939166     0.0333333333  0.000277790478  0.000278182554  3516
      0.571600469      0.965917015     -0.190247561     -0.421937967      0.998751982       532.328688       265.832166     0.0333333333  0.000277791199  0.000278258783  3515
      0.554883497      0.967863529     -0.188005315     -0.330747863      0.998619974       532.200921       265.733235     0.0333333333  0.000277790478  0.000278335704  3514
      0.538217172      0.969893968     -0.182144569     -0.234950521      0.998502721       532.089806        265.64656     0.0333333333  0.000277790478  0.000278365015  3513
      0.521594118      0.971986702     -0.175748739      -0.13535071      0.998416468        532.00568       265.581616     0.0333333333  0.000277791199  0.000278340213  3512
      0.505014812      0.974116863     -0.166548722    -0.0337272745      0.998350539       531.947652       265.535113     0.0333333333  0.000277790478  0.000278289335  3511
      0.488474427      0.976258263     -0.148868389     0.0672234377      0.998391171       531.941839       265.543018     0.0333333333  0.000277790478  0.000278204348  3510
      0.471949794      0.978385893     -0.139376045      0.167807018      0.998622971        532.01732       265.642358     0.0333333333  0.000277791199  0.000278053997  3509
      0.455481582      0.980468485     -0.118389779      0.264266594      0.998882656       532.118027       265.761734     0.0333333333  0.000277790478  0.000277873016  3508
      0.439037072      0.982483162      -0.07444008      0.353124314      0.999335405       532.278644       265.962447     0.0333333333  0.000277790478  0.000277604018  3507
      0.422543164      0.984418424    -0.0863988515      0.444872208      0.999932046       532.494724       266.229269     0.0333333333  0.000277791199  0.000277270795  3506
      0.406230415      0.986223156    -0.0516879091      0.526857538      0.999851031       532.523754       266.222212     0.0333333333  0.000277790478  0.000277149024  3505
      0.389763824      0.987911476    -0.0197330635      0.601284856      0.999484694       532.467284        266.09645     0.0333333333  0.000277790478  0.000277153321  3504
      0.373220791      0.989467611     -0.111790854       0.68758132      0.998985269       532.416579        265.93816     0.0333333333  0.000277791199  0.000277198381  3503
      0.357100426      0.990797139    -0.0335297782      0.744962165      0.997831238       532.232235       265.538975     0.0333333333  0.000277790478  0.000277410954  3502
      0.340093114      0.992044301      -0.10535755      0.798458976      0.997493631       532.298498       265.482181     0.0333333333  0.000277790478  0.000277388786  3501
      0.323978323      0.993012028    -0.0752871705      0.842141113      0.998021884       532.599635       265.773046     0.0333333333  0.000277791199  0.000277144041  3500
      0.307173197      0.993870786    0.00360120316      0.866610154      0.998940561       532.943838       266.189608     0.0333333333  0.000277790478  0.000276834854  3499
      0.290222655      0.994515807     -0.078222096      0.900218721       1.00083007       533.479848       266.961337     0.0333333333  0.000277790478  0.000276315333  3498
      0.274983262      0.994694669      0.107398978      0.894397945       1.00081605       533.506877       266.971123     0.0333333333  0.000277791199  0.000276312722  3497
      0.256501288      0.996240516     -0.234773274       1.09080443      0.999409149       533.188718       266.436842     0.0333333333  0.000277790478  0.000276598749  3496
      0.242383115      0.996376632      0.211152684      0.998596368      0.996790109       532.479254       265.385027     0.0333333333  0.000277790478  0.000277255244  3495
       0.22425958      0.997256817     -0.194694835       1.13487346      0.995241201        532.03892       264.753527     0.0333333333  0.000277791199  0.000277660709  3494
      0.209408823      0.996782463      0.214805744       1.08880386      0.997118581       532.490239       265.477955     0.0333333333  0.000277790478  0.000277223218  3493
      0.192346162      0.995181147    -0.0736152386      0.930198552      0.999121726       533.103832       266.317811     0.0333333333  0.000277790478  0.000276790612  3492
      0.176818609      0.993582977    -0.0256520821      0.841831427        1.0012937       533.681189       267.185807     0.0333333333  0.000277791199  0.0002762534  3491
       0.16025761      0.992229269     0.0583137252      0.824986431       1.00049255       533.385607       266.824164     0.0333333333  0.000277790478  0.000276507322  3490
      0.143797293      0.990910742     0.0849348848       0.75229217      0.998425571       532.717359       265.939317     0.0333333333  0.000277790616  0.000277146758  3489
      0.127142108      0.989414806     0.0934412711        0.6852901      0.996723764       532.129124       265.192872     0.0333333333  0.000277791822  0.000277728848  3488
